time,x_actual_x,x_actual_y,x_actual_z,x_desired_x,x_desired_y,x_desired_z,x_d_actual_x,x_d_actual_y,x_d_actual_z,x_d_desired_x,x_d_desired_y,x_d_desired_z,disturbance_x,disturbance_y,disturbance_z,force,force_error,tracking_error,stiffness,dotproduct
0.0228653,-0.3294055,1.151767,-0.2268395,-0.2727049,1.148088,-0.2359993,-0.050581,-0.07358595,-0.08554234,-0.07476877,-0.09724239,-0.0857239,0,0,0,0.3166563,-9.683344,0.04685365,255,0.01715889
0.05625153,-0.3306721,1.150227,-0.2292387,-0.2744849,1.146013,-0.238498,-0.02830003,-0.0373466,-0.05104921,-0.04316787,-0.05218003,-0.05479321,0,0,0,0.2569128,-9.743087,0.04552062,255,0.0147858
0.07258606,-0.3320746,1.148802,-0.2319989,-0.2765695,1.143949,-0.2413985,-0.03794643,-0.04612143,-0.07187857,-0.05332679,-0.06215714,-0.07486071,0,0,0,0.3048916,-9.695108,0.04305537,255,0.01603848
0.08860016,-0.3329971,1.148076,-0.2336765,-0.2778621,1.143011,-0.2430054,-0.09069168,-0.0921929,-0.1784811,-0.1348013,-0.1334407,-0.187554,0,0,0,0.4336593,-9.56634,0.0403832,255,0.02473075
0.1121063,-0.3339239,1.147498,-0.2352253,-0.2790202,1.142421,-0.24436,-0.05821761,-0.04579923,-0.1058693,-0.08156671,-0.05923507,-0.1014045,0,0,0,0.5361871,-9.463813,0.03875749,255,0.02988083
0.1339493,-0.3352456,1.146943,-0.2373473,-0.280717,1.141865,-0.2465171,-0.03798516,-0.02368179,-0.06347717,-0.04746863,-0.02415572,-0.05552054,0,0,0,0.5693442,-9.430655,0.03723232,255,0.02946312
0.1556091,-0.3363622,1.146757,-0.2392277,-0.282391,1.141718,-0.2486352,-0.06101813,-0.02561421,-0.09797134,-0.07833414,-0.02568576,-0.09958942,0,0,0,0.6315877,-9.368412,0.035184,255,0.0291394
0.1785889,-0.3374542,1.146799,-0.2408612,-0.2838933,1.141905,-0.2502608,-0.05255134,-0.008741023,-0.08849865,-0.07878703,-0.006917639,-0.09968301,0,0,0,0.6157251,-9.384274,0.03352781,255,0.02518557
0.1999893,-0.3386713,1.146954,-0.2423324,-0.2858269,1.142287,-0.2521519,-0.04717499,0.001787039,-0.07057,-0.06490246,0.008080298,-0.0702301,0,0,0,0.5477002,-9.4523,0.03205923,255,0.02010389
0.2212677,-0.3398354,1.147094,-0.2434128,-0.2880102,1.142702,-0.2539602,-0.05601382,0.007132198,-0.0677065,-0.08898789,0.01755618,-0.08703202,0,0,0,0.5221327,-9.477867,0.0305778,255,0.01836651
0.2440567,-0.340916,1.147157,-0.2441407,-0.289629,1.142972,-0.2549899,-0.0563478,0.00677391,-0.05229297,-0.1056736,0.02011978,-0.08752424,0,0,0,0.5087887,-9.491211,0.0292617,255,0.01805465
0.2667236,-0.3427975,1.147182,-0.2450021,-0.292354,1.143412,-0.2564982,-0.04655911,0.00274285,-0.031363,-0.06975006,0.01160318,-0.04436586,0,0,0,0.4629881,-9.537012,0.02809593,255,0.01766731
0.2893982,-0.3452517,1.147136,-0.2457911,-0.2955015,1.144078,-0.258255,-0.08284084,0.0011022,-0.03792619,-0.1199797,0.01937248,-0.06641018,0,0,0,0.4448938,-9.555106,0.02613406,255,0.01903973
0.3113327,-0.3479682,1.147287,-0.2465481,-0.2987198,1.145018,-0.259827,-0.1098593,-0.002059853,-0.03532168,-0.1408945,0.02981451,-0.07864263,0,0,0,0.4191379,-9.580862,0.02362273,255,0.01843488
0.3319855,-0.3507378,1.147573,-0.2471953,-0.3019976,1.146063,-0.2612891,-0.1212747,0.006742805,-0.03379385,-0.1436744,0.04200017,-0.07017945,0,0,0,0.4435634,-9.556437,0.02090139,255,0.01969858
0.3538208,-0.3522789,1.147778,-0.2474861,-0.3038722,1.146915,-0.2619939,-0.133165,0.01372203,-0.03111817,-0.1576056,0.05023959,-0.07030103,0,0,0,0.4845039,-9.515496,0.01817128,255,0.01755421
0.378273,-0.3549222,1.148413,-0.2477983,-0.3068784,1.14862,-0.262853,-0.07158044,0.009545535,-0.01350439,-0.08706702,0.03954974,-0.03273388,0,0,0,0.5782816,-9.421719,0.01666939,255,0.01632501
0.4019623,-0.3578677,1.149522,-0.2478107,-0.3102036,1.150877,-0.2635273,-0.1078646,0.02588924,-0.01274031,-0.1226772,0.06958768,-0.03505653,0,0,0,0.6802155,-9.319784,0.01415944,255,0.01371141
0.4207535,-0.3602713,1.150776,-0.2474642,-0.3130806,1.153277,-0.2636226,-0.1223702,0.04608261,-0.0005150555,-0.1381389,0.09377971,-0.02801357,0,0,0,0.6955466,-9.304454,0.01145986,255,0.02015353
0.4452667,-0.3620135,1.151865,-0.2468122,-0.3152217,1.155186,-0.2632449,-0.1335477,0.06969319,0.01924809,-0.1598565,0.1333391,-0.005295543,0,0,0,0.7325275,-9.267472,0.009368151,255,0.02849385
0.4730759,-0.3638179,1.153084,-0.2455602,-0.3179371,1.15762,-0.2626303,-0.0704354,0.04399291,0.02636297,-0.08656164,0.07718037,0.01527076,0,0,0,0.6979208,-9.302079,0.008005333,255,0.03104443
0.4941254,-0.3647014,1.153701,-0.2447252,-0.319479,1.158852,-0.2623514,-0.05478523,0.03701934,0.03801106,-0.08244476,0.0738939,0.01865988,0,0,0,0.6182277,-9.381772,0.007004687,255,0.02824756
0.5111389,-0.3656616,1.154349,-0.243681,-0.3212127,1.160125,-0.262104,-0.05676892,0.03962929,0.05365349,-0.09906939,0.07914369,0.01791896,0,0,0,0.5594654,-9.440535,0.006817176,255,0.02503671
0.5321579,-0.3664476,1.154872,-0.2427,-0.3228005,1.161326,-0.2619097,-0.05710321,0.03854498,0.06209591,-0.1031027,0.07574297,0.01471401,0,0,0,0.4623697,-9.53763,0.006922836,255,0.01502798
0.5525742,-0.3674356,1.155572,-0.2412931,-0.3251004,1.163094,-0.2617625,-0.03518293,0.02344284,0.04391329,-0.07107694,0.05373762,0.008698343,0,0,0,0.3889232,-9.611076,0.00730105,255,0.007223935
0.5771255,-0.3681668,1.156169,-0.2402673,-0.3273352,1.164648,-0.2620132,-0.04984904,0.03531563,0.07098008,-0.1160343,0.08922128,0.007424581,0,0,0,0.2854894,-9.714511,0.008171407,255,-0.005688456
0.5981369,-0.3691195,1.157114,-0.2393703,-0.3300925,1.166674,-0.2627136,-0.02946079,0.02405472,0.04133204,-0.09004669,0.06258646,-0.01010125,0,0,0,0.3066106,-9.69339,0.008945464,255,-0.01168077
0.6218338,-0.3700004,1.158247,-0.2388883,-0.3321416,1.168422,-0.2632501,-0.04491907,0.04451439,0.04229429,-0.1300008,0.09553732,-0.03302046,0,0,0,0.3401941,-9.659806,0.009650138,255,-0.01642905
0.6429367,-0.3709642,1.159781,-0.2385426,-0.3342026,1.17057,-0.2638391,-0.03827012,0.0492418,0.02093864,-0.08902288,0.075955,-0.02330803,0,0,0,0.3854074,-9.614593,0.01003808,255,-0.02128969
0.6662064,-0.3717397,1.161338,-0.238372,-0.3358408,1.172798,-0.2644818,-0.04555648,0.07249594,0.01634061,-0.09741537,0.1015371,-0.02784383,0,0,0,0.418348,-9.581652,0.01034034,255,-0.02649893
0.6879807,-0.3725306,1.163406,-0.2383558,-0.33752,1.17541,-0.2652134,-0.03319675,0.06667415,0.007302213,-0.07012752,0.0953421,-0.02750959,0,0,0,0.3939591,-9.606041,0.01050864,255,-0.03038632
0.7080612,-0.3733263,1.165533,-0.2383845,-0.3390462,1.177981,-0.2658719,-0.03637335,0.09507675,0.0007456141,-0.07722725,0.120148,-0.03364583,0,0,0,0.3751662,-9.624834,0.01054117,255,-0.03191398
0.7334442,-0.3737645,1.166656,-0.2384157,-0.339906,1.179369,-0.2662596,-0.03928025,0.1050141,-0.001418315,-0.07534428,0.1269068,-0.03250942,0,0,0,0.2770269,-9.722973,0.010545,255,-0.02446106
0.7539215,-0.3749279,1.169385,-0.2385992,-0.3418225,1.182326,-0.2671738,-0.01645774,0.04217855,-0.001168517,-0.0322898,0.05213109,-0.01455946,0,0,0,0.2534075,-9.746593,0.01053992,255,-0.0224144
0.7772751,-0.3758272,1.171325,-0.238829,-0.3433434,1.184735,-0.2680066,-0.05970414,0.140056,-0.009421496,-0.09835521,0.151784,-0.04692088,0,0,0,0.2307058,-9.769294,0.01046134,255,-0.01609895
0.7963486,-0.3770458,1.173862,-0.239282,-0.3448703,1.187302,-0.2691789,-0.03892704,0.08399727,-0.009943651,-0.06583734,0.104251,-0.03604638,0,0,0,0.5246625,-9.475338,0.01035382,255,-0.03791279
0.8210297,-0.377299,1.175092,-0.2393668,-0.3459024,1.189161,-0.2701904,-0.06365988,0.1325105,-0.02366481,-0.07976285,0.1341047,-0.06124514,0,0,0,0.6738498,-9.32615,0.01013224,255,-0.03324232
0.8424835,-0.3775527,1.176488,-0.2394256,-0.3471612,1.191653,-0.2715622,-0.01039058,0.05047061,-0.003483093,-0.04235358,0.07628562,-0.04150605,0,0,0,1.109387,-8.890613,0.01006352,255,-0.05987631
0.8669891,-0.3778671,1.178218,-0.2395188,-0.3485013,1.194592,-0.2730325,-0.01178102,0.06480805,-0.002728702,-0.05844846,0.1157069,-0.06369554,0,0,0,1.449494,-8.550506,0.01001044,255,-0.08369626
0.8960266,-0.378185,1.180035,-0.2396573,-0.3498288,1.197981,-0.2747465,-0.01273908,0.0700879,-0.003777048,-0.05429506,0.1190688,-0.05957061,0,0,0,1.756398,-8.243602,0.00992343,255,-0.08764218
0.9128799,-0.3784204,1.181428,-0.2397868,-0.3507639,1.200437,-0.2764843,-0.01067488,0.06103478,-0.004651871,-0.04458209,0.1138107,-0.05755989,0,0,0,2.045465,-7.954535,0.009784473,255,-0.09244314
0.9327469,-0.3785527,1.182229,-0.2398644,-0.3514627,1.202191,-0.2779445,-0.01526549,0.09035595,-0.008396215,-0.06064835,0.1593193,-0.1127033,0,0,0,2.457343,-7.542657,0.009649585,255,-0.09307151
0.9531631,-0.3787218,1.183229,-0.2399492,-0.352532,1.204737,-0.2799935,-0.006390999,0.0386395,-0.003746547,-0.03373475,0.08465125,-0.07049666,0,0,0,2.876168,-7.123832,0.009566661,255,-0.1352022
0.974556,-0.3789144,1.184264,-0.2400342,-0.3535988,1.207534,-0.2815689,-0.008411409,0.0497806,-0.004216081,-0.05318726,0.1266841,-0.1019213,0,0,0,3.127301,-6.872699,0.00947422,255,-0.162066
0.9972763,-0.3791146,1.185184,-0.2401189,-0.3543574,1.209419,-0.2823687,-0.008942018,0.04804328,-0.003947776,-0.0495493,0.1298835,-0.07317505,0,0,0,3.409526,-6.590474,0.009385183,255,-0.1723565
1.019264,-0.3795065,1.186994,-0.2402712,-0.3556717,1.212375,-0.2835138,-0.008581487,0.03944061,-0.003632889,-0.03251717,0.0808024,-0.03427741,0,0,0,3.688895,-6.311106,0.009305355,255,-0.1819121
1.042152,-0.3799117,1.188884,-0.2404116,-0.3570501,1.215096,-0.2843983,-0.01822455,0.08415551,-0.007078086,-0.06111016,0.1374546,-0.05324361,0,0,0,3.832623,-6.167377,0.009157313,255,-0.1819231
1.063324,-0.3801862,1.190101,-0.2404985,-0.3579509,1.216723,-0.2848926,-0.01777422,0.08292545,-0.006160057,-0.06046321,0.1193472,-0.03879842,0,0,0,4.056555,-5.943445,0.009012803,255,-0.1886406
1.08876,-0.3806471,1.192188,-0.240635,-0.359481,1.219407,-0.2856402,-0.01249756,0.05537947,-0.003956452,-0.04101223,0.07406,-0.02250402,0,0,0,4.374602,-5.625398,0.008924394,255,-0.2138551
1.110405,-0.3811631,1.194444,-0.2408038,-0.3610439,1.222268,-0.2864344,-0.01887695,0.0855127,-0.00559082,-0.0626709,0.1099365,-0.030625,0,0,0,4.485318,-5.514682,0.008775117,255,-0.2384505
1.130486,-0.3816942,1.196576,-0.241021,-0.362274,1.224964,-0.2871343,-0.02381575,0.1041098,-0.007790493,-0.07213359,0.1320478,-0.03665273,0,0,0,4.525606,-5.474394,0.008591294,255,-0.2393002
1.15229,-0.3822121,1.198612,-0.2412317,-0.3633904,1.227607,-0.2878627,-0.02555554,0.1025835,-0.01045108,-0.05918887,0.1297265,-0.03367635,0,0,0,4.546772,-5.453228,0.00836958,255,-0.225168
1.175949,-0.3825178,1.199809,-0.2413505,-0.3639101,1.22889,-0.2882114,-0.02464597,0.0969045,-0.01003086,-0.05313294,0.1258056,-0.03466549,0,0,0,4.5892,-5.4108,0.008150785,255,-0.2326734
1.196754,-0.3831189,1.202164,-0.2415944,-0.3649532,1.23206,-0.2889472,-0.01283607,0.05025324,-0.004984785,-0.02181845,0.05387172,-0.01464156,0,0,0,4.623306,-5.376694,0.008024025,255,-0.2462818
1.219414,-0.3836425,1.204244,-0.2418241,-0.3656843,1.234771,-0.2895356,-0.02795921,0.1095136,-0.01134448,-0.04851624,0.147445,-0.03422474,0,0,0,4.588757,-5.411243,0.007757456,255,-0.2218302
1.244026,-0.3839789,1.20545,-0.241981,-0.3660952,1.236318,-0.2898877,-0.02411142,0.0958143,-0.01057954,-0.03367253,0.1248573,-0.02709944,0,0,0,4.561777,-5.438223,0.007498086,255,-0.2013854
1.264427,-0.3846637,1.207895,-0.2423355,-0.3669451,1.239449,-0.2906408,-0.0134117,0.04805353,-0.006253802,-0.01638059,0.06166362,-0.01403541,0,0,0,4.513627,-5.486373,0.00733272,255,-0.1851413
1.286423,-0.3853006,1.210128,-0.2426491,-0.3675633,1.241963,-0.2912555,-0.03302491,0.1179463,-0.01709667,-0.04098257,0.1509612,-0.03631461,0,0,0,4.574461,-5.425539,0.00695599,255,-0.1930575
1.316368,-0.3859213,1.21223,-0.2429373,-0.3682248,1.244787,-0.2921101,-0.029445,0.1032297,-0.01450066,-0.02858383,0.1162423,-0.02842262,0,0,0,4.589618,-5.410382,0.006616075,255,-0.1793908
1.33622,-0.3864973,1.214164,-0.24323,-0.3688212,1.247217,-0.2929641,-0.01837711,0.06223882,-0.008530749,-0.01958419,0.08359569,-0.02530283,0,0,0,4.644028,-5.355972,0.006301574,255,-0.1454147
1.355469,-0.3869488,1.21559,-0.2434846,-0.3693506,1.248909,-0.2936363,-0.03590109,0.1205421,-0.01824774,-0.0371716,0.1514577,-0.05322382,0,0,0,4.758467,-5.241533,0.005981003,255,-0.1125606
1.376396,-0.3875445,1.217453,-0.2438101,-0.3702129,1.251004,-0.2946315,-0.02448154,0.07729753,-0.01380198,-0.0287094,0.09175243,-0.03645402,0,0,0,4.984018,-5.015982,0.005712371,255,-0.08062223
1.397606,-0.3882024,1.219386,-0.2441153,-0.3717893,1.253536,-0.2961525,-0.0278552,0.08713878,-0.01522364,-0.04032092,0.09799768,-0.04653496,0,0,0,5.232405,-4.767595,0.005364329,255,-0.04797365
1.422249,-0.3886206,1.220614,-0.2442964,-0.3730618,1.254957,-0.2971693,-0.03040704,0.08933137,-0.01410437,-0.07285652,0.1170222,-0.07029597,0,0,0,5.610649,-4.389351,0.005039864,255,-0.05072654
1.44474,-0.3892391,1.222424,-0.2445548,-0.3753541,1.257218,-0.2985927,-0.0172054,0.05053359,-0.007449584,-0.05235061,0.05844907,-0.04183341,0,0,0,6.006282,-3.993718,0.004842499,255,-0.03840172
1.465706,-0.3898821,1.224173,-0.2447591,-0.3776337,1.259193,-0.2995625,-0.02767038,0.08095136,-0.01156143,-0.1025451,0.1011359,-0.06367321,0,0,0,6.118908,-3.881092,0.004555829,255,-0.03819001
1.489151,-0.3903182,1.225237,-0.2449116,-0.3788089,1.260202,-0.2998524,-0.0302286,0.0822218,-0.0096059,-0.1071711,0.0928477,-0.0455916,0,0,0,6.373528,-3.626472,0.004330035,255,-0.03985912
1.510429,-0.3911711,1.227394,-0.2451438,-0.3815807,1.262564,-0.3000556,-0.0189951,0.04635572,-0.006641534,-0.05119148,0.04395148,-0.01263138,0,0,0,6.452177,-3.547823,0.004176116,255,-0.06080324
1.531853,-0.3916557,1.228563,-0.2452574,-0.3829979,1.263695,-0.2999167,-0.03976982,0.1005481,-0.010828,-0.1292439,0.1101365,-0.009471718,0,0,0,6.576272,-3.423728,0.003922512,255,-0.09348226
1.555428,-0.3926066,1.230779,-0.2454278,-0.3852496,1.265679,-0.2995759,-0.02200327,0.05309902,-0.005157819,-0.06434285,0.05134006,0.006302498,0,0,0,6.625233,-3.374767,0.003799624,255,-0.1076915
1.577965,-0.3936893,1.233263,-0.2456651,-0.3873551,1.268013,-0.2991306,-0.04129649,0.09623509,-0.007398318,-0.09778956,0.08617048,0.01480181,0,0,0,6.63666,-3.36334,0.00361228,255,-0.1178269
1.599808,-0.3943565,1.234681,-0.2458335,-0.3884099,1.269356,-0.2988461,-0.04859803,0.111494,-0.0106539,-0.09451118,0.1048052,0.01998876,0,0,0,6.679362,-3.320638,0.003352964,255,-0.1001864
1.622932,-0.3954183,1.236968,-0.2460827,-0.390103,1.271448,-0.2984594,-0.02939601,0.06248424,-0.007415967,-0.04647453,0.05913866,0.01253677,0,0,0,6.888882,-3.111118,0.003181619,255,-0.1019822
1.646118,-0.3963677,1.238999,-0.2462781,-0.3918969,1.273551,-0.2984516,-0.04657693,0.1003022,-0.01093436,-0.07426712,0.0917838,0.01696369,0,0,0,7.10098,-2.89902,0.002915908,255,-0.0583953
1.667542,-0.397182,1.240604,-0.2464148,-0.3935977,1.275475,-0.2987594,-0.04052146,0.08668288,-0.0083391,-0.0765681,0.08977125,0.0003307147,0,0,0,7.251378,-2.748622,0.002699611,255,-0.0494595
1.688614,-0.3979698,1.241949,-0.2464682,-0.3952724,1.2775,-0.2993268,-0.03871537,0.07633977,-0.006500499,-0.08085527,0.09145471,-0.01463321,0,0,0,7.317606,-2.682394,0.002556466,255,-0.02103026
1.712677,-0.3982691,1.242553,-0.2464158,-0.3962833,1.278747,-0.2997703,-0.0378511,0.06459059,-0.002565983,-0.0804676,0.09727822,-0.02726356,0,0,0,7.434761,-2.565239,0.002517722,255,-0.06080159
1.739273,-0.3989936,1.243824,-0.2463524,-0.3983774,1.28116,-0.3007327,-0.01232906,0.02488899,0.00216127,-0.04165357,0.0513842,-0.01827256,0,0,0,8.137569,-1.862431,0.002559308,255,-0.03398902
1.758148,-0.3996309,1.244925,-0.2463804,-0.4003329,1.283434,-0.3014624,-0.02394067,0.04199883,0.002095412,-0.06918996,0.07972413,-0.03179945,0,0,0,8.569568,-1.430432,0.002622991,255,-0.05204432
1.778503,-0.4001739,1.245805,-0.2462737,-0.4015352,1.284988,-0.3018599,-0.04246632,0.07339063,-0.001866739,-0.1303023,0.1515315,-0.04862259,0,0,0,8.990489,-1.009511,0.002598308,255,-0.08804365
1.801529,-0.4008764,1.247045,-0.2462034,-0.4032583,1.287191,-0.3024427,-0.02721379,0.04410851,0.005347753,-0.06026231,0.07789794,-0.01992113,0,0,0,9.409039,-0.5909605,0.002709215,255,-0.07225805
1.822769,-0.4018485,1.248586,-0.2461681,-0.405203,1.289524,-0.3030962,-0.02872178,0.05069596,0.002875468,-0.07044653,0.09007525,-0.02382739,0,0,0,9.906573,-0.0934267,0.002771662,255,-0.01003343
1.845337,-0.4027262,1.249969,-0.2460783,-0.4073588,1.291816,-0.3035198,-0.04829801,0.07656724,0.001753222,-0.0966286,0.1158904,-0.03247015,0,0,0,9.530148,-0.4698524,0.00281815,255,-0.02822387
1.866264,-0.4032145,1.25088,-0.2461088,-0.4087209,1.293123,-0.3036718,-0.03866991,0.06091912,0.003954832,-0.09497637,0.1010031,-0.01866597,0,0,0,9.891241,-0.1087589,0.002913544,255,-0.05303162
1.889259,-0.4042081,1.252504,-0.2461898,-0.4109765,1.295184,-0.3039389,-0.02308802,0.04308148,-0.001443001,-0.06440662,0.06178977,-0.007184005,0,0,0,10.38011,0.3801117,0.002867614,255,-0.02469509
1.911285,-0.4052674,1.254181,-0.2461374,-0.4134451,1.297348,-0.3042596,-0.04333923,0.07085066,-0.003530574,-0.0983868,0.08988665,-0.01164985,0,0,0,10.49458,0.4945822,0.002784599,255,-0.04166695
1.931946,-0.4058768,1.255161,-0.246131,-0.4149077,1.298571,-0.3043457,-0.04856511,0.07687347,0.002399222,-0.1131719,0.09920426,-0.01470411,0,0,0,10.52904,0.5290422,0.00283283,255,-0.05704333
1.955956,-0.407004,1.25676,-0.2460577,-0.4170728,1.300547,-0.3043206,-0.02881775,0.04633951,0.0003043831,-0.06915838,0.05785534,-0.004069715,0,0,0,10.91533,0.9153318,0.002833563,255,0.0741303
1.978607,-0.4082822,1.258794,-0.2459883,-0.4195273,1.302903,-0.304211,-0.04735326,0.06716747,0.003079928,-0.09095804,0.08302785,0.001054187,0,0,0,11.07164,1.071641,0.002919789,255,0.08100247
1.999588,-0.4096337,1.260833,-0.2460348,-0.4218239,1.305096,-0.3040398,-0.05646618,0.08987403,0.003064965,-0.108431,0.1040561,0.004839695,0,0,0,10.99811,0.998107,0.002968181,255,0.1119154
2.020958,-0.410984,1.262804,-0.2460685,-0.4238369,1.3073,-0.3038312,-0.06270603,0.09459071,-0.00215708,-0.106557,0.1017367,0.007942478,0,0,0,10.84902,0.8490152,0.002912242,255,0.1090845
2.045654,-0.4116888,1.263902,-0.2461284,-0.4247826,1.308441,-0.3037563,-0.06499466,0.09488042,-0.001623898,-0.09689594,0.1060985,0.01004464,0,0,0,10.87981,0.8798084,0.00287126,255,0.1387145
2.068192,-0.4135268,1.266515,-0.2463989,-0.426814,1.311061,-0.3037942,-0.02856611,0.04450274,-0.002425402,-0.0383257,0.0462614,0.003034168,0,0,0,10.86509,0.8650942,0.002798651,255,0.1095519
2.090034,-0.415092,1.268872,-0.2467152,-0.4287087,1.31356,-0.3039272,-0.08116788,0.1153976,-0.01194512,-0.08971214,0.1157029,-0.001674107,0,0,0,10.87524,0.8752365,0.002519293,255,0.1544484
2.11203,-0.4168066,1.27122,-0.2470334,-0.4304389,1.316351,-0.304203,-0.07238968,0.1089946,-0.01463259,-0.08763012,0.1155445,-0.006152964,0,0,0,10.45433,0.4543343,0.002179366,255,0.183534
2.133507,-0.4177135,1.272499,-0.2471967,-0.4313042,1.317988,-0.3044046,-0.07874501,0.1078366,-0.01460943,-0.07946084,0.1281918,-0.01266589,0,0,0,10.376,0.3760023,0.001852802,255,0.3309091
2.162552,-0.419808,1.275294,-0.2477595,-0.4326745,1.321337,-0.3048203,-0.03605551,0.05085589,-0.006492645,-0.03439799,0.06508284,-0.008011544,0,0,0,10.15675,0.1567488,0.001683742,255,0.3601063
2.181793,-0.4218439,1.277999,-0.2482873,-0.4335929,1.324168,-0.3052102,-0.07982653,0.1065262,-0.02144973,-0.05222607,0.1276443,-0.01584536,0,0,0,9.834751,-0.1652489,0.00112205,255,0.390206
2.200935,-0.4239237,1.280496,-0.2487099,-0.4343579,1.326739,-0.3055784,-0.1083017,0.1438971,-0.02807934,-0.04885825,0.1505809,-0.02073927,0,0,0,9.406853,-0.5931473,0.0006520115,255,0.4341888
2.222672,-0.4262573,1.283284,-0.2491744,-0.4351763,1.329771,-0.3059901,-0.1103219,0.1324426,-0.02241628,-0.04057852,0.1363757,-0.01952967,0,0,0,8.97295,-1.02705,0.0003918421,255,0.5076767
2.246094,-0.4294045,1.286743,-0.2496182,-0.4362484,1.333472,-0.3063354,-0.1072479,0.1281228,-0.02134467,-0.03761204,0.1393759,-0.01892312,0,0,0,8.501056,-1.498944,0.0005747412,255,0.5994166
2.266373,-0.4328003,1.290346,-0.2500228,-0.4374751,1.337054,-0.3066787,-0.134848,0.1482102,-0.01901663,-0.04593515,0.1585588,-0.01479752,0,0,0,8.202974,-1.797026,0.0009344062,255,0.669601
2.290314,-0.4350069,1.292566,-0.2502785,-0.4382869,1.338885,-0.3068957,-0.1639416,0.1739296,-0.01953269,-0.05922393,0.1729339,-0.01656883,0,0,0,7.486534,-2.513466,0.001330964,255,0.8053046
